frequency,raw,error,smoothed,error_smoothed,equalization,parametric_eq,fixed_band_eq,equalized_raw,equalized_smoothed,target
20.00,-6.16,-6.68,-6.17,-6.68,6.00,6.16,2.48,-0.16,-0.17,0.52
20.20,-6.12,-6.68,-6.11,-6.68,6.00,6.18,2.55,-0.12,-0.11,0.56
20.40,-6.07,-6.69,-6.05,-6.68,6.00,6.21,2.62,-0.07,-0.05,0.62
20.61,-5.99,-6.69,-5.99,-6.68,6.00,6.23,2.70,0.01,0.01,0.70
20.81,-5.92,-6.68,-5.92,-6.69,6.00,6.25,2.78,0.08,0.08,0.76
21.02,-5.85,-6.68,-5.85,-6.68,6.00,6.26,2.86,0.15,0.15,0.83
21.23,-5.80,-6.68,-5.79,-6.66,6.00,6.28,2.94,0.20,0.21,0.88
21.44,-5.72,-6.64,-5.72,-6.65,6.00,6.28,3.03,0.28,0.28,0.92
21.66,-5.65,-6.64,-5.66,-6.64,6.00,6.29,3.11,0.35,0.34,0.99
21.87,-5.59,-6.63,-5.59,-6.62,6.00,6.29,3.20,0.41,0.41,1.04
22.09,-5.53,-6.61,-5.52,-6.60,6.00,6.30,3.30,0.47,0.48,1.08
22.31,-5.45,-6.57,-5.46,-6.58,6.00,6.29,3.39,0.55,0.54,1.13
22.54,-5.39,-6.56,-5.39,-6.55,6.00,6.29,3.49,0.61,0.61,1.16
22.76,-5.33,-6.52,-5.32,-6.52,6.00,6.28,3.59,0.67,0.68,1.20
22.99,-5.25,-6.46,-5.26,-6.48,6.00,6.27,3.69,0.75,0.74,1.21
23.22,-5.19,-6.44,-5.19,-6.44,6.00,6.25,3.80,0.81,0.81,1.25
23.45,-5.13,-6.40,-5.13,-6.40,6.00,6.24,3.91,0.87,0.87,1.27
23.69,-5.07,-6.38,-5.07,-6.38,6.00,6.21,4.02,0.93,0.93,1.31
23.92,-5.01,-6.35,-5.01,-6.36,6.00,6.19,4.13,0.99,0.99,1.34
24.16,-4.95,-6.35,-4.95,-6.34,6.00,6.17,4.24,1.05,1.05,1.40
24.40,-4.88,-6.31,-4.89,-6.31,6.00,6.14,4.36,1.12,1.11,1.43
24.65,-4.83,-6.28,-4.82,-6.28,6.00,6.11,4.48,1.17,1.18,1.45
24.89,-4.76,-6.24,-4.76,-6.25,6.00,6.07,4.60,1.24,1.24,1.48
25.14,-4.69,-6.22,-4.69,-6.22,6.00,6.04,4.72,1.31,1.31,1.53
25.39,-4.63,-6.20,-4.63,-6.19,6.01,6.00,4.84,1.38,1.38,1.57
25.65,-4.56,-6.16,-4.56,-6.16,6.01,5.96,4.96,1.45,1.45,1.60
25.91,-4.51,-6.12,-4.50,-6.12,6.01,5.91,5.08,1.50,1.51,1.61
26.16,-4.43,-6.08,-4.44,-6.08,6.00,5.87,5.20,1.58,1.57,1.65
26.43,-4.38,-6.04,-4.37,-6.04,5.99,5.82,5.32,1.61,1.62,1.66
26.69,-4.31,-6.02,-4.31,-6.01,5.98,5.77,5.44,1.67,1.67,1.71
26.96,-4.25,-5.96,-4.25,-5.97,5.95,5.72,5.56,1.70,1.70,1.71
27.23,-4.19,-5.94,-4.19,-5.93,5.92,5.67,5.68,1.73,1.73,1.75
27.50,-4.13,-5.88,-4.13,-5.88,5.88,5.61,5.79,1.75,1.75,1.75
27.77,-4.06,-5.83,-4.06,-5.83,5.84,5.56,5.90,1.78,1.78,1.77
28.05,-4.00,-5.78,-4.00,-5.78,5.79,5.50,6.00,1.79,1.79,1.78
28.33,-3.93,-5.71,-3.93,-5.73,5.73,5.44,6.10,1.80,1.80,1.78
28.62,-3.87,-5.69,-3.87,-5.68,5.68,5.38,6.19,1.81,1.81,1.82
28.90,-3.81,-5.63,-3.81,-5.63,5.63,5.32,6.27,1.82,1.82,1.82
29.19,-3.74,-5.57,-3.74,-5.58,5.58,5.26,6.35,1.84,1.84,1.83
29.48,-3.68,-5.54,-3.68,-5.52,5.53,5.20,6.41,1.85,1.85,1.86
29.78,-3.61,-5.46,-3.62,-5.48,5.48,5.13,6.47,1.87,1.86,1.85
30.08,-3.56,-5.43,-3.56,-5.43,5.43,5.07,6.52,1.87,1.87,1.87
30.38,-3.51,-5.40,-3.50,-5.38,5.37,5.01,6.55,1.86,1.87,1.89
30.68,-3.44,-5.32,-3.45,-5.33,5.32,4.94,6.58,1.88,1.87,1.89
30.99,-3.39,-5.26,-3.39,-5.27,5.27,4.88,6.59,1.88,1.88,1.87
31.30,-3.33,-5.20,-3.32,-5.21,5.22,4.81,6.60,1.89,1.89,1.87
31.61,-3.26,-5.15,-3.27,-5.16,5.17,4.74,6.59,1.91,1.89,1.89
31.93,-3.22,-5.12,-3.22,-5.11,5.12,4.68,6.57,1.90,1.90,1.90
32.24,-3.18,-5.07,-3.17,-5.07,5.07,4.61,6.54,1.89,1.90,1.89
32.57,-3.12,-5.01,-3.12,-5.02,5.02,4.55,6.49,1.90,1.90,1.89
32.89,-3.06,-4.98,-3.06,-4.97,4.97,4.48,6.44,1.91,1.91,1.92
33.22,-3.00,-4.92,-3.00,-4.92,4.92,4.41,6.38,1.92,1.91,1.92
33.55,-2.95,-4.87,-2.95,-4.87,4.86,4.35,6.30,1.91,1.91,1.92
33.89,-2.90,-4.81,-2.90,-4.81,4.81,4.28,6.22,1.91,1.91,1.91
34.23,-2.85,-4.76,-2.85,-4.75,4.76,4.21,6.13,1.91,1.91,1.91
34.57,-2.79,-4.69,-2.79,-4.69,4.70,4.15,6.04,1.91,1.91,1.90
34.92,-2.74,-4.63,-2.74,-4.64,4.65,4.08,5.94,1.91,1.90,1.89
35.27,-2.70,-4.60,-2.70,-4.59,4.60,4.01,5.83,1.90,1.90,1.90
35.62,-2.66,-4.55,-2.65,-4.54,4.54,3.95,5.72,1.88,1.89,1.89
35.97,-2.60,-4.48,-2.60,-4.50,4.49,3.88,5.60,1.89,1.89,1.88
36.33,-2.54,-4.45,-2.54,-4.44,4.44,3.82,5.48,1.90,1.89,1.91
36.70,-2.49,-4.39,-2.49,-4.39,4.38,3.76,5.36,1.89,1.89,1.90
37.06,-2.45,-4.33,-2.44,-4.33,4.33,3.69,5.24,1.88,1.88,1.88
37.43,-2.40,-4.28,-2.40,-4.27,4.27,3.63,5.12,1.87,1.87,1.88
37.81,-2.35,-4.19,-2.35,-4.20,4.20,3.57,4.99,1.85,1.85,1.84
38.19,-2.31,-4.14,-2.31,-4.13,4.14,3.50,4.87,1.83,1.83,1.83
38.57,-2.27,-4.07,-2.26,-4.07,4.07,3.44,4.74,1.80,1.81,1.80
38.95,-2.21,-4.00,-2.21,-4.00,4.00,3.38,4.62,1.79,1.79,1.79
39.34,-2.15,-3.93,-2.15,-3.93,3.93,3.32,4.50,1.78,1.78,1.78
39.74,-2.09,-3.85,-2.10,-3.86,3.86,3.26,4.37,1.77,1.76,1.76
40.14,-2.05,-3.80,-2.05,-3.79,3.79,3.20,4.25,1.74,1.74,1.75
40.54,-2.01,-3.71,-2.01,-3.72,3.71,3.14,4.14,1.71,1.71,1.70
40.94,-1.96,-3.65,-1.96,-3.65,3.64,3.08,4.02,1.68,1.69,1.69
41.35,-1.90,-3.58,-1.90,-3.57,3.57,3.02,3.90,1.67,1.67,1.68
41.76,-1.84,-3.48,-1.84,-3.50,3.50,2.97,3.79,1.66,1.65,1.64
42.18,-1.79,-3.42,-1.79,-3.42,3.42,2.91,3.68,1.64,1.63,1.63
42.60,-1.75,-3.37,-1.75,-3.35,3.35,2.85,3.58,1.61,1.61,1.62
43.03,-1.70,-3.28,-1.70,-3.29,3.28,2.80,3.47,1.59,1.58,1.58
43.46,-1.67,-3.22,-1.66,-3.22,3.22,2.74,3.37,1.55,1.55,1.55
43.90,-1.62,-3.15,-1.62,-3.15,3.16,2.69,3.27,1.54,1.53,1.53
44.33,-1.59,-3.10,-1.58,-3.09,3.10,2.64,3.17,1.51,1.51,1.51
44.78,-1.54,-3.04,-1.54,-3.04,3.04,2.58,3.07,1.50,1.49,1.50
45.23,-1.51,-2.99,-1.50,-2.98,2.99,2.53,2.98,1.48,1.48,1.48
45.68,-1.47,-2.94,-1.47,-2.94,2.94,2.48,2.89,1.47,1.47,1.47
46.13,-1.43,-2.88,-1.44,-2.89,2.90,2.43,2.80,1.47,1.46,1.45
46.60,-1.42,-2.86,-1.41,-2.85,2.86,2.38,2.72,1.44,1.45,1.44
47.06,-1.38,-2.81,-1.38,-2.81,2.81,2.33,2.63,1.43,1.43,1.43
47.53,-1.36,-2.77,-1.37,-2.79,2.77,2.28,2.55,1.41,1.40,1.41
48.01,-1.34,-2.75,-1.34,-2.74,2.72,2.23,2.47,1.38,1.38,1.41
48.49,-1.34,-2.72,-1.32,-2.69,2.68,2.18,2.40,1.34,1.35,1.38
48.97,-1.29,-2.60,-1.30,-2.63,2.63,2.14,2.32,1.34,1.33,1.31
49.46,-1.29,-2.57,-1.29,-2.57,2.59,2.09,2.25,1.30,1.29,1.29
49.96,-1.29,-2.52,-1.28,-2.52,2.54,2.04,2.18,1.25,1.26,1.23
50.46,-1.29,-2.49,-1.29,-2.50,2.50,2.00,2.11,1.21,1.21,1.20
50.96,-1.29,-2.47,-1.29,-2.46,2.46,1.95,2.04,1.17,1.17,1.18
51.47,-1.29,-2.44,-1.29,-2.43,2.43,1.91,1.98,1.14,1.14,1.15
51.99,-1.29,-2.38,-1.28,-2.39,2.40,1.86,1.92,1.11,1.12,1.09
52.51,-1.29,-2.37,-1.29,-2.37,2.37,1.82,1.85,1.08,1.08,1.08
53.03,-1.29,-2.34,-1.31,-2.34,2.34,1.78,1.79,1.05,1.04,1.05
53.56,-1.34,-2.34,-1.32,-2.32,2.31,1.73,1.74,0.97,0.99,1.00
54.10,-1.34,-2.27,-1.34,-2.28,2.27,1.69,1.68,0.93,0.93,0.93
54.64,-1.34,-2.24,-1.34,-2.23,2.22,1.65,1.62,0.88,0.88,0.90
55.18,-1.34,-2.18,-1.34,-2.18,2.17,1.61,1.57,0.83,0.83,0.84
55.74,-1.34,-2.13,-1.34,-2.12,2.12,1.57,1.52,0.78,0.78,0.79
56.29,-1.34,-2.07,-1.32,-2.05,2.06,1.53,1.46,0.72,0.73,0.73
56.86,-1.29,-1.96,-1.31,-1.98,1.99,1.49,1.41,0.70,0.68,0.68
57.42,-1.29,-1.91,-1.29,-1.91,1.92,1.45,1.36,0.63,0.64,0.62
58.00,-1.27,-1.85,-1.26,-1.85,1.85,1.41,1.32,0.59,0.59,0.58
58.58,-1.25,-1.81,-1.25,-1.80,1.79,1.37,1.27,0.54,0.54,0.56
59.16,-1.22,-1.71,-1.22,-1.73,1.72,1.33,1.22,0.50,0.50,0.49
59.76,-1.21,-1.68,-1.20,-1.66,1.66,1.30,1.18,0.45,0.46,0.47
60.35,-1.16,-1.57,-1.18,-1.59,1.60,1.26,1.13,0.44,0.42,0.41
60.96,-1.16,-1.55,-1.16,-1.53,1.54,1.22,1.09,0.38,0.38,0.39
61.57,-1.16,-1.48,-1.14,-1.47,1.49,1.19,1.05,0.33,0.35,0.32
62.18,-1.12,-1.41,-1.14,-1.43,1.44,1.15,1.00,0.32,0.31,0.29
62.80,-1.12,-1.40,-1.12,-1.39,1.40,1.12,0.96,0.28,0.27,0.28
63.43,-1.12,-1.37,-1.10,-1.36,1.35,1.08,0.92,0.23,0.25,0.25
64.07,-1.08,-1.31,-1.09,-1.32,1.31,1.05,0.88,0.23,0.22,0.23
64.71,-1.05,-1.26,-1.05,-1.26,1.25,1.01,0.84,0.20,0.20,0.21
65.35,-1.01,-1.21,-1.01,-1.20,1.19,0.98,0.80,0.19,0.19,0.20
66.01,-0.95,-1.13,-0.95,-1.14,1.13,0.94,0.76,0.18,0.17,0.18
66.67,-0.89,-1.08,-0.89,-1.07,1.05,0.91,0.72,0.16,0.17,0.19
67.33,-0.81,-0.99,-0.81,-0.98,0.97,0.88,0.69,0.16,0.16,0.18
68.01,-0.73,-0.89,-0.73,-0.89,0.89,0.84,0.65,0.16,0.16,0.16
68.69,-0.65,-0.79,-0.65,-0.79,0.81,0.81,0.61,0.16,0.15,0.14
69.37,-0.59,-0.71,-0.59,-0.71,0.73,0.78,0.58,0.14,0.15,0.12
70.07,-0.53,-0.63,-0.53,-0.64,0.66,0.75,0.54,0.13,0.13,0.10
70.77,-0.47,-0.60,-0.48,-0.59,0.60,0.72,0.50,0.13,0.12,0.13
71.48,-0.44,-0.55,-0.44,-0.54,0.54,0.69,0.47,0.10,0.10,0.11
72.19,-0.41,-0.50,-0.41,-0.50,0.49,0.65,0.43,0.08,0.09,0.09
72.91,-0.38,-0.44,-0.39,-0.45,0.45,0.62,0.40,0.07,0.06,0.06
73.64,-0.38,-0.42,-0.38,-0.42,0.42,0.59,0.36,0.04,0.04,0.04
74.38,-0.38,-0.40,-0.36,-0.38,0.39,0.56,0.33,0.01,0.02,0.02
75.12,-0.34,-0.34,-0.36,-0.36,0.35,0.53,0.29,0.01,-0.01,-0.00
75.87,-0.34,-0.32,-0.34,-0.32,0.31,0.50,0.26,-0.03,-0.03,-0.02
76.63,-0.34,-0.30,-0.33,-0.29,0.28,0.47,0.22,-0.06,-0.05,-0.04
77.40,-0.30,-0.24,-0.31,-0.25,0.24,0.44,0.19,-0.06,-0.07,-0.06
78.17,-0.30,-0.22,-0.29,-0.21,0.20,0.41,0.15,-0.10,-0.09,-0.08
78.95,-0.25,-0.16,-0.26,-0.16,0.17,0.38,0.12,-0.08,-0.09,-0.09
79.74,-0.25,-0.14,-0.24,-0.12,0.14,0.35,0.08,-0.11,-0.10,-0.11
80.54,-0.21,-0.08,-0.22,-0.09,0.11,0.32,0.05,-0.10,-0.11,-0.13
81.35,-0.21,-0.06,-0.21,-0.08,0.09,0.30,0.01,-0.12,-0.12,-0.15
82.16,-0.21,-0.09,-0.21,-0.07,0.07,0.27,-0.02,-0.14,-0.14,-0.12
82.98,-0.21,-0.07,-0.21,-0.07,0.05,0.24,-0.06,-0.16,-0.16,-0.14
83.81,-0.21,-0.04,-0.21,-0.04,0.03,0.21,-0.10,-0.18,-0.17,-0.17
84.65,-0.21,-0.02,-0.20,-0.01,0.02,0.18,-0.13,-0.19,-0.18,-0.19
85.50,-0.17,0.03,-0.19,0.00,-0.00,0.15,-0.17,-0.17,-0.19,-0.19
86.35,-0.17,0.02,-0.17,0.03,-0.03,0.12,-0.20,-0.20,-0.20,-0.19
87.22,-0.17,0.04,-0.15,0.06,-0.06,0.10,-0.24,-0.23,-0.21,-0.21
88.09,-0.12,0.12,-0.13,0.09,-0.10,0.07,-0.28,-0.22,-0.23,-0.24
88.97,-0.10,0.12,-0.10,0.14,-0.14,0.04,-0.31,-0.24,-0.24,-0.22
89.86,-0.06,0.17,-0.06,0.18,-0.19,0.01,-0.35,-0.25,-0.25,-0.23
90.76,-0.02,0.25,-0.02,0.23,-0.24,-0.02,-0.39,-0.26,-0.26,-0.26
91.66,0.01,0.29,0.01,0.30,-0.29,-0.04,-0.43,-0.28,-0.28,-0.28
92.58,0.04,0.36,0.04,0.36,-0.35,-0.07,-0.47,-0.30,-0.31,-0.32
93.51,0.07,0.41,0.07,0.41,-0.40,-0.10,-0.50,-0.33,-0.33,-0.34
94.44,0.09,0.45,0.10,0.46,-0.45,-0.13,-0.54,-0.36,-0.36,-0.36
95.39,0.13,0.50,0.12,0.50,-0.50,-0.16,-0.58,-0.37,-0.38,-0.37
96.34,0.14,0.55,0.14,0.55,-0.55,-0.18,-0.62,-0.41,-0.41,-0.41
97.30,0.16,0.60,0.16,0.60,-0.60,-0.21,-0.66,-0.44,-0.43,-0.44
98.28,0.18,0.65,0.17,0.64,-0.64,-0.24,-0.70,-0.46,-0.47,-0.47
99.26,0.18,0.68,0.19,0.68,-0.67,-0.27,-0.74,-0.49,-0.49,-0.50
100.25,0.19,0.72,0.20,0.71,-0.71,-0.30,-0.78,-0.52,-0.51,-0.52
101.25,0.22,0.74,0.21,0.75,-0.74,-0.32,-0.82,-0.52,-0.53,-0.52
102.27,0.22,0.77,0.22,0.78,-0.78,-0.35,-0.86,-0.56,-0.56,-0.55
103.29,0.22,0.81,0.22,0.80,-0.81,-0.38,-0.90,-0.59,-0.59,-0.59
104.32,0.22,0.83,0.22,0.83,-0.85,-0.41,-0.94,-0.63,-0.63,-0.61
105.37,0.22,0.86,0.23,0.87,-0.88,-0.44,-0.98,-0.66,-0.65,-0.64
106.42,0.25,0.92,0.25,0.92,-0.92,-0.47,-1.02,-0.67,-0.67,-0.67
107.48,0.27,0.97,0.26,0.97,-0.96,-0.49,-1.06,-0.69,-0.70,-0.70
108.56,0.27,1.01,0.27,1.01,-1.00,-0.52,-1.10,-0.73,-0.72,-0.74
109.64,0.27,1.04,0.27,1.04,-1.04,-0.55,-1.14,-0.77,-0.76,-0.77
110.74,0.27,1.07,0.27,1.07,-1.07,-0.58,-1.18,-0.80,-0.80,-0.80
111.85,0.27,1.10,0.27,1.10,-1.11,-0.61,-1.21,-0.84,-0.84,-0.83
112.97,0.27,1.15,0.27,1.14,-1.14,-0.64,-1.25,-0.87,-0.87,-0.88
114.10,0.27,1.17,0.27,1.17,-1.17,-0.67,-1.29,-0.90,-0.90,-0.90
115.24,0.27,1.21,0.27,1.20,-1.20,-0.70,-1.32,-0.93,-0.93,-0.94
116.39,0.27,1.21,0.27,1.22,-1.23,-0.73,-1.35,-0.96,-0.96,-0.94
117.55,0.27,1.25,0.27,1.25,-1.26,-0.76,-1.38,-0.98,-0.98,-0.98
118.73,0.27,1.29,0.27,1.28,-1.28,-0.79,-1.41,-1.01,-1.01,-1.01
119.92,0.27,1.31,0.27,1.31,-1.30,-0.82,-1.44,-1.03,-1.04,-1.04
121.12,0.26,1.34,0.25,1.33,-1.33,-0.85,-1.47,-1.06,-1.07,-1.08
122.33,0.22,1.34,0.24,1.35,-1.35,-0.88,-1.49,-1.13,-1.11,-1.11
123.55,0.22,1.36,0.22,1.36,-1.37,-0.91,-1.52,-1.15,-1.15,-1.14
124.79,0.22,1.40,0.21,1.38,-1.39,-0.94,-1.54,-1.17,-1.18,-1.18
126.03,0.18,1.39,0.19,1.41,-1.41,-0.97,-1.56,-1.23,-1.21,-1.21
127.29,0.18,1.43,0.17,1.42,-1.42,-1.00,-1.58,-1.24,-1.25,-1.25
128.57,0.16,1.45,0.16,1.45,-1.44,-1.03,-1.60,-1.28,-1.28,-1.29
129.85,0.14,1.46,0.15,1.47,-1.46,-1.06,-1.61,-1.32,-1.31,-1.32
131.15,0.14,1.50,0.12,1.48,-1.48,-1.09,-1.63,-1.34,-1.35,-1.36
132.46,0.09,1.48,0.11,1.49,-1.50,-1.12,-1.64,-1.41,-1.39,-1.39
133.79,0.09,1.50,0.09,1.51,-1.52,-1.15,-1.66,-1.43,-1.43,-1.41
135.12,0.09,1.54,0.09,1.53,-1.54,-1.19,-1.67,-1.45,-1.46,-1.45
136.48,0.09,1.56,0.09,1.57,-1.57,-1.22,-1.68,-1.48,-1.48,-1.47
137.84,0.09,1.59,0.09,1.60,-1.60,-1.25,-1.69,-1.51,-1.51,-1.50
139.22,0.09,1.63,0.09,1.63,-1.62,-1.28,-1.70,-1.53,-1.53,-1.54
140.61,0.09,1.66,0.09,1.66,-1.65,-1.31,-1.71,-1.56,-1.56,-1.57
142.02,0.09,1.67,0.09,1.68,-1.67,-1.35,-1.71,-1.58,-1.58,-1.58
143.44,0.09,1.70,0.09,1.70,-1.70,-1.38,-1.72,-1.61,-1.61,-1.61
144.87,0.09,1.73,0.09,1.73,-1.72,-1.41,-1.73,-1.63,-1.63,-1.64
146.32,0.09,1.75,0.08,1.74,-1.74,-1.45,-1.74,-1.65,-1.66,-1.66
147.78,0.07,1.75,0.07,1.75,-1.76,-1.48,-1.75,-1.69,-1.69,-1.68
149.26,0.05,1.76,0.06,1.78,-1.78,-1.51,-1.76,-1.73,-1.72,-1.70
150.75,0.05,1.81,0.04,1.80,-1.80,-1.55,-1.77,-1.75,-1.76,-1.76
152.26,0.04,1.84,0.03,1.83,-1.82,-1.58,-1.78,-1.78,-1.78,-1.80
153.78,0.01,1.84,0.02,1.85,-1.84,-1.61,-1.79,-1.83,-1.82,-1.83
155.32,0.01,1.87,0.00,1.86,-1.86,-1.65,-1.80,-1.85,-1.86,-1.86
156.88,-0.02,1.86,-0.01,1.87,-1.88,-1.68,-1.81,-1.90,-1.90,-1.88
158.44,-0.04,1.88,-0.03,1.89,-1.90,-1.71,-1.82,-1.94,-1.93,-1.92
160.03,-0.04,1.91,-0.05,1.91,-1.92,-1.75,-1.84,-1.96,-1.97,-1.95
161.63,-0.08,1.95,-0.07,1.94,-1.93,-1.78,-1.86,-2.01,-2.00,-2.03
163.24,-0.08,1.98,-0.09,1.96,-1.95,-1.82,-1.87,-2.03,-2.04,-2.06
164.88,-0.12,1.96,-0.11,1.98,-1.97,-1.85,-1.89,-2.09,-2.08,-2.08
166.53,-0.12,1.99,-0.13,1.98,-1.99,-1.89,-1.91,-2.11,-2.12,-2.11
168.19,-0.15,1.99,-0.15,2.00,-2.01,-1.92,-1.93,-2.16,-2.15,-2.14
169.87,-0.17,2.01,-0.16,2.02,-2.02,-1.95,-1.96,-2.19,-2.19,-2.18
171.57,-0.18,2.06,-0.19,2.04,-2.04,-1.99,-1.98,-2.22,-2.23,-2.24
173.29,-0.21,2.06,-0.21,2.06,-2.06,-2.02,-2.01,-2.27,-2.26,-2.27
175.02,-0.24,2.06,-0.23,2.08,-2.08,-2.06,-2.04,-2.31,-2.31,-2.30
176.77,-0.25,2.12,-0.26,2.09,-2.10,-2.09,-2.07,-2.35,-2.36,-2.37
178.54,-0.30,2.11,-0.29,2.12,-2.12,-2.13,-2.10,-2.42,-2.41,-2.41
180.32,-0.30,2.13,-0.31,2.15,-2.15,-2.16,-2.13,-2.44,-2.45,-2.43
182.13,-0.34,2.17,-0.33,2.16,-2.17,-2.19,-2.17,-2.51,-2.50,-2.51
183.95,-0.34,2.20,-0.35,2.19,-2.19,-2.23,-2.20,-2.53,-2.54,-2.54
185.79,-0.38,2.19,-0.36,2.22,-2.21,-2.26,-2.24,-2.59,-2.58,-2.56
187.65,-0.38,2.27,-0.38,2.25,-2.24,-2.29,-2.28,-2.62,-2.62,-2.65
189.52,-0.38,2.29,-0.40,2.26,-2.26,-2.33,-2.32,-2.64,-2.66,-2.67
191.42,-0.43,2.26,-0.41,2.29,-2.29,-2.36,-2.36,-2.71,-2.69,-2.69
193.33,-0.43,2.29,-0.43,2.29,-2.31,-2.39,-2.41,-2.74,-2.74,-2.72
195.27,-0.43,2.35,-0.45,2.32,-2.34,-2.42,-2.45,-2.77,-2.79,-2.78
197.22,-0.47,2.33,-0.46,2.36,-2.37,-2.45,-2.50,-2.83,-2.82,-2.80
199.19,-0.47,2.41,-0.47,2.39,-2.39,-2.49,-2.54,-2.86,-2.86,-2.88
201.18,-0.47,2.42,-0.47,2.43,-2.42,-2.52,-2.59,-2.89,-2.89,-2.89
203.19,-0.47,2.47,-0.47,2.47,-2.45,-2.55,-2.64,-2.92,-2.93,-2.94
205.23,-0.48,2.49,-0.49,2.48,-2.48,-2.57,-2.69,-2.96,-2.97,-2.97
207.28,-0.51,2.49,-0.50,2.51,-2.51,-2.60,-2.74,-3.02,-3.01,-3.00
209.35,-0.51,2.52,-0.51,2.53,-2.53,-2.63,-2.79,-3.04,-3.04,-3.03
211.44,-0.51,2.57,-0.52,2.55,-2.55,-2.66,-2.84,-3.06,-3.07,-3.08
213.56,-0.52,2.58,-0.53,2.57,-2.57,-2.68,-2.89,-3.09,-3.10,-3.10
215.69,-0.56,2.58,-0.54,2.59,-2.59,-2.71,-2.94,-3.15,-3.13,-3.13
217.85,-0.56,2.59,-0.56,2.60,-2.60,-2.73,-2.98,-3.16,-3.16,-3.15
220.03,-0.56,2.63,-0.58,2.61,-2.61,-2.76,-3.03,-3.17,-3.19,-3.19
222.23,-0.60,2.61,-0.58,2.62,-2.62,-2.78,-3.08,-3.22,-3.20,-3.21
224.45,-0.60,2.63,-0.60,2.62,-2.62,-2.80,-3.12,-3.22,-3.23,-3.23
226.70,-0.61,2.63,-0.62,2.63,-2.63,-2.82,-3.16,-3.24,-3.24,-3.24
228.96,-0.64,2.62,-0.63,2.63,-2.63,-2.84,-3.20,-3.27,-3.26,-3.26
231.25,-0.64,2.64,-0.65,2.62,-2.63,-2.85,-3.24,-3.27,-3.28,-3.28
233.57,-0.68,2.61,-0.67,2.62,-2.63,-2.87,-3.27,-3.31,-3.30,-3.29
235.90,-0.69,2.62,-0.69,2.62,-2.62,-2.88,-3.30,-3.31,-3.31,-3.31
238.26,-0.69,2.64,-0.70,2.63,-2.62,-2.90,-3.33,-3.31,-3.32,-3.33
240.64,-0.73,2.61,-0.72,2.62,-2.62,-2.91,-3.35,-3.35,-3.34,-3.34
243.05,-0.73,2.63,-0.74,2.62,-2.62,-2.92,-3.37,-3.35,-3.35,-3.36
245.48,-0.77,2.59,-0.76,2.61,-2.61,-2.93,-3.39,-3.38,-3.37,-3.36
247.93,-0.77,2.61,-0.78,2.61,-2.61,-2.93,-3.40,-3.38,-3.39,-3.38
250.41,-0.80,2.61,-0.80,2.61,-2.61,-2.94,-3.41,-3.41,-3.41,-3.41
252.92,-0.82,2.61,-0.82,2.61,-2.61,-2.95,-3.41,-3.43,-3.42,-3.43
255.45,-0.84,2.60,-0.84,2.61,-2.61,-2.95,-3.41,-3.45,-3.45,-3.44
258.00,-0.86,2.61,-0.86,2.60,-2.61,-2.96,-3.40,-3.47,-3.47,-3.47
260.58,-0.88,2.61,-0.88,2.60,-2.61,-2.96,-3.40,-3.49,-3.49,-3.49
263.19,-0.90,2.59,-0.89,2.62,-2.61,-2.97,-3.38,-3.51,-3.50,-3.49
265.82,-0.90,2.63,-0.90,2.62,-2.62,-2.97,-3.37,-3.52,-3.52,-3.53
268.48,-0.90,2.64,-0.92,2.62,-2.62,-2.98,-3.35,-3.52,-3.54,-3.54
271.16,-0.95,2.60,-0.93,2.63,-2.62,-2.99,-3.33,-3.57,-3.56,-3.55
273.87,-0.95,2.64,-0.94,2.63,-2.63,-3.00,-3.30,-3.58,-3.57,-3.58
276.61,-0.95,2.64,-0.96,2.63,-2.63,-3.01,-3.28,-3.58,-3.59,-3.59
279.38,-0.95,2.65,-0.96,2.64,-2.64,-3.03,-3.25,-3.59,-3.60,-3.60
282.17,-0.99,2.62,-0.98,2.64,-2.65,-3.04,-3.22,-3.64,-3.62,-3.61
284.99,-0.99,2.65,-0.98,2.65,-2.66,-3.06,-3.18,-3.65,-3.64,-3.64
287.84,-0.99,2.67,-1.00,2.66,-2.67,-3.07,-3.15,-3.66,-3.66,-3.66
290.72,-0.99,2.69,-1.00,2.68,-2.68,-3.09,-3.12,-3.67,-3.68,-3.68
293.63,-1.03,2.69,-1.02,2.69,-2.69,-3.11,-3.08,-3.72,-3.71,-3.71
296.57,-1.03,2.70,-1.02,2.71,-2.71,-3.12,-3.04,-3.74,-3.73,-3.73
299.53,-1.03,2.73,-1.03,2.73,-2.73,-3.14,-3.01,-3.75,-3.76,-3.76
302.53,-1.03,2.76,-1.04,2.74,-2.74,-3.16,-2.97,-3.77,-3.78,-3.79
305.55,-1.07,2.74,-1.06,2.76,-2.76,-3.17,-2.94,-3.83,-3.82,-3.81
308.61,-1.08,2.77,-1.07,2.78,-2.77,-3.18,-2.90,-3.85,-3.84,-3.85
311.69,-1.08,2.80,-1.08,2.79,-2.79,-3.19,-2.87,-3.87,-3.87,-3.88
314.81,-1.08,2.82,-1.09,2.81,-2.81,-3.20,-2.84,-3.89,-3.90,-3.90
317.96,-1.11,2.81,-1.10,2.83,-2.83,-3.21,-2.81,-3.94,-3.93,-3.92
321.14,-1.12,2.84,-1.11,2.84,-2.85,-3.22,-2.78,-3.97,-3.96,-3.96
324.35,-1.12,2.87,-1.12,2.87,-2.87,-3.22,-2.75,-3.99,-3.99,-3.99
327.59,-1.12,2.89,-1.12,2.89,-2.89,-3.22,-2.72,-4.01,-4.02,-4.01
330.87,-1.12,2.93,-1.13,2.92,-2.92,-3.22,-2.70,-4.04,-4.05,-4.05
334.18,-1.16,2.93,-1.15,2.94,-2.95,-3.22,-2.68,-4.10,-4.09,-4.09
337.52,-1.16,2.97,-1.16,2.97,-2.97,-3.22,-2.66,-4.13,-4.13,-4.13
340.90,-1.16,3.00,-1.16,3.00,-3.00,-3.21,-2.64,-4.16,-4.16,-4.16
344.30,-1.16,3.04,-1.16,3.03,-3.03,-3.20,-2.62,-4.18,-4.19,-4.19
347.75,-1.16,3.07,-1.18,3.05,-3.05,-3.20,-2.60,-4.21,-4.23,-4.23
351.23,-1.21,3.06,-1.19,3.07,-3.08,-3.19,-2.59,-4.29,-4.27,-4.27
354.74,-1.21,3.09,-1.21,3.09,-3.10,-3.17,-2.58,-4.31,-4.31,-4.30
358.28,-1.21,3.13,-1.21,3.12,-3.13,-3.16,-2.57,-4.34,-4.34,-4.34
361.87,-1.21,3.15,-1.21,3.15,-3.15,-3.15,-2.56,-4.36,-4.36,-4.36
365.49,-1.21,3.18,-1.22,3.17,-3.17,-3.13,-2.56,-4.38,-4.40,-4.39
369.14,-1.25,3.18,-1.24,3.19,-3.20,-3.11,-2.55,-4.44,-4.43,-4.43
372.83,-1.25,3.21,-1.24,3.22,-3.22,-3.10,-2.55,-4.47,-4.46,-4.46
376.56,-1.25,3.25,-1.26,3.24,-3.24,-3.08,-2.55,-4.49,-4.49,-4.49
380.33,-1.25,3.27,-1.26,3.25,-3.25,-3.06,-2.56,-4.50,-4.52,-4.52
384.13,-1.29,3.25,-1.28,3.27,-3.27,-3.04,-2.56,-4.56,-4.54,-4.54
387.97,-1.29,3.28,-1.28,3.28,-3.28,-3.01,-2.57,-4.57,-4.56,-4.57
391.85,-1.29,3.31,-1.30,3.29,-3.28,-2.99,-2.57,-4.57,-4.58,-4.60
395.77,-1.29,3.29,-1.31,3.29,-3.29,-2.97,-2.58,-4.58,-4.59,-4.58
399.73,-1.34,3.28,-1.32,3.28,-3.29,-2.94,-2.59,-4.63,-4.61,-4.62
403.72,-1.34,3.27,-1.34,3.28,-3.29,-2.91,-2.61,-4.63,-4.63,-4.61
407.76,-1.34,3.27,-1.34,3.28,-3.29,-2.89,-2.62,-4.63,-4.63,-4.61
411.84,-1.34,3.29,-1.34,3.28,-3.28,-2.86,-2.63,-4.62,-4.62,-4.63
415.96,-1.34,3.28,-1.34,3.28,-3.27,-2.83,-2.65,-4.61,-4.61,-4.62
420.12,-1.36,3.25,-1.35,3.27,-3.25,-2.80,-2.66,-4.61,-4.61,-4.61
424.32,-1.36,3.24,-1.37,3.24,-3.23,-2.77,-2.68,-4.59,-4.60,-4.60
428.56,-1.38,3.22,-1.37,3.21,-3.21,-2.74,-2.69,-4.59,-4.58,-4.59
432.85,-1.38,3.16,-1.38,3.17,-3.18,-2.71,-2.71,-4.56,-4.56,-4.53
437.18,-1.38,3.15,-1.38,3.14,-3.15,-2.68,-2.72,-4.52,-4.53,-4.53
441.55,-1.38,3.11,-1.38,3.10,-3.11,-2.65,-2.73,-4.49,-4.49,-4.49
445.96,-1.38,3.07,-1.38,3.07,-3.06,-2.62,-2.75,-4.44,-4.44,-4.45
450.42,-1.38,3.02,-1.38,3.02,-3.02,-2.59,-2.76,-4.40,-4.40,-4.40
454.93,-1.38,2.97,-1.38,2.97,-2.97,-2.55,-2.77,-4.35,-4.35,-4.35
459.48,-1.38,2.93,-1.38,2.92,-2.92,-2.52,-2.78,-4.30,-4.30,-4.31
464.07,-1.38,2.86,-1.38,2.86,-2.87,-2.49,-2.78,-4.24,-4.24,-4.24
468.71,-1.37,2.79,-1.37,2.80,-2.81,-2.45,-2.79,-4.18,-4.17,-4.16
